delta,theta,alpha,beta,gama
-1.05814459744e-06,-1.05814459744e-06,-1.10262987475e-05,-0.0026231561669,-0.00860144525336
-1.18312747126e-05,-1.1712853724e-05,-0.000116960521803,-0.0228989223737,-0.0460092774025
-6.53733338621e-05,-6.38278553451e-05,-0.000602308263856,-0.0896077343391,-0.0565181455037
-0.000242907368522,-0.000232813102084,-0.00204134994385,-0.203940238325,0.144729592588
-0.00069609474646,-0.00065149072238,-0.00520640534798,-0.27951709118,0.484251900604
-0.00166468791231,-0.0015128842298,-0.0107833478171,-0.157958848813,0.265422452515
-0.00348876946039,-0.00306060001947,-0.0189726936871,0.270005529951,-0.910361323133
-0.00661230847963,-0.00556414652117,-0.0290685719143,0.925664907339,-1.79322548843
-0.0115791708621,-0.00928236237461,-0.0391794401533,1.49219500841,-0.511653929466
-0.0190298010184,-0.0144262944724,-0.0463013502553,1.51054817053,2.44255010183
-0.0297064360241,-0.0211324218135,-0.0468464382814,0.619356584065,3.75051696815
-0.0444651152384,-0.029446373802,-0.0374935508269,-1.14211177966,1.09760973961
-0.0642834217665,-0.0393069684983,-0.0160533679814,-3.14942699167,-3.44724017153
-0.0902551538046,-0.0505229110496,0.0179084515665,-4.3407186797,-5.42286249111
-0.123571822054,-0.0627443387487,0.0627743610543,-3.74305733047,-2.91899122733
-0.165495920001,-0.0754373771156,0.114871238419,-1.12375430795,1.86928547253
-0.217329610286,-0.0878686487298,0.168714370171,2.66600188295,5.56985657883
-0.280378383464,-0.0991020039835,0.217486520779,5.95851909622,6.26099963748
-0.355909409547,-0.10800917909,0.253717613229,7.06892472513,3.21135856821
-0.44510791841,-0.113298857205,0.270072914676,5.1942893156,-3.25413902218
-0.549036664271,-0.113569010094,0.260142766814,0.906680592962,-9.81008680069
-0.668600134087,-0.107382125132,0.219185573519,-4.03279561313,-10.2166499892
-0.80450947872,-0.0933553353964,0.144845243707,-7.44902983054,-1.15847220394
-0.957244562097,-0.070256712891,0.0378288241607,-7.75440219494,11.4426187966
-1.12701399866,-0.037103004553,-0.0975615055562,-4.71586535506,15.5425731061
-1.31371790655,0.00674229848532,-0.253205402891,0.379208485463,5.45332375659
-1.51692166183,0.0614685642785,-0.417420830298,5.25944268474,-10.1429283417
-1.73584769471,0.126715545376,-0.575773866958,7.69398459005,-15.9868444515
-1.96938736482,0.201475358231,-0.712360386433,6.55009040179,-6.65647872347
-2.21613219192,0.284009072722,-0.811374748491,2.36940739707,7.30181330237
-2.47442256011,0.371789292606,-0.858738142389,-2.85031899028,11.3333336061
-2.74240719408,0.461484068228,-0.843522759162,-6.58401982071,3.2105803766
-3.01809890952,0.549003019081,-0.758901821394,-6.96933538424,-5.5471277718
-3.29941393669,0.629620401924,-0.602523457353,-3.70782986334,-4.5382624133
-3.58419421023,0.698171907588,-0.376486417433,1.71743939701,3.03474665589
-3.870219037,0.749309379149,-0.0872219915236,6.63684418609,5.74878482259
-4.15521001554,0.777796007238,0.254506197184,8.40751013657,-0.476877254429
-4.43682820658,0.778826546768,0.633450846998,5.73434024633,-7.36097432576
-4.71266370372,0.748353920126,1.02965986101,-0.557567168383,-5.88940177277
-4.98022345167,0.683396929437,1.41832150839,-7.75805328152,1.76085888111
-5.23692436784,0.582303404563,1.76990190187,-12.4644363862,6.01884086182
-5.48009636455,0.444948166307,2.05088164938,-12.1684119872,3.200681955
-5.70699735432,0.272851585851,2.22539316194,-6.46456376571,-0.591198099296
-5.91483879443,0.0692126832294,2.25796682801,2.70348268251,0.420860410586
-6.10081576418,-0.161140011106,2.11741820924,11.8669001252,2.91785697236
-6.26213384625,-0.411870827947,1.7816324625,17.5112810159,-0.142858483607
-6.39602923208,-0.675324652813,1.24265631214,17.5006641952,-7.82433952166
-6.49977947719,-0.942770579551,0.511281318045,11.8340029273,-10.2690958815
-6.57069793148,-1.20468585249,-0.379736068247,2.50165712102,-1.16089927436
-6.60610916594,-1.45106789038,-1.3746721228,-7.4094960955,12.1767820075
-6.60331636625,-1.67177554766,-2.39683021624,-14.9486244502,15.2309277601
-6.55957945808,-1.85690725061,-3.35395459025,-18.3306277339,3.2126696211
-6.4721162397,-1.99721408918,-4.14682117266,-17.3172322914,-11.9625380267
-6.33812616702,-2.08452954182,-4.68004272858,-12.8587206247,-14.5091796553
-6.15482875936,-2.11218709688,-4.87363113551,-6.33658532155,-3.0064806889
-5.91950586322,-2.07539363208,-4.67367057922,1.06006614472,8.3240637692
-5.62954149141,-1.97153258145,-4.06060749122,8.45756568463,7.26159609561
-5.28246355348,-1.80038489,-3.05408138379,14.9612330512,-1.80704399462
-4.87599345013,-1.56426105479,-1.7136421668,19.299518847,-4.58208820166
-4.40809992834,-1.26803154958,-0.135063733077,19.9450771217,3.77613423062
-3.8770493327,-0.919043132087,1.55754752562,15.8114014491,11.3249621477
-3.2814508122,-0.526920548007,3.22304639024,7.10725810789,4.22104154469
-2.62029726202,-0.103261035771,4.71670000615,-4.24913266535,-13.7769534249
-1.89299702925,0.338771499113,5.90436157002,-15.0158470584,-22.3380243448
-1.09939249839,0.784939516196,6.67582337551,-21.7530576265,-7.79061042436
-0.239767523868,1.22048838256,6.95583230786,-22.2215953903,18.2675959498
0.685155548836,1.63074058708,6.71155503079,-16.3715490334,29.1975235045
1.67423185631,2.00170309051,5.95574545315,-6.40175412594,12.5583906359
2.72592216274,2.32065889251,4.74532499543,4.14805311954,-15.559259544
3.83832324731,2.57670528309,3.17551470982,11.8237633586,-27.9467188602
5.00918668033,2.76120025914,1.3701528407,14.5580327461,-14.857270146
6.23591938104,2.86809140102,-0.530617903559,12.3388105707,8.2980015855
7.5155696291,2.89411874706,-2.38371002573,7.03525905391,19.7362496082
8.84480734418,2.83889513027,-4.05583318275,1.48476159649,12.840215482
10.2199057444,2.70487145051,-5.43420053306,-1.79026069574,-1.65748280279
11.6367287956,2.49719630097,-6.43421613785,-1.70068709263,-10.0263238512
13.0907291151,2.22348337532,-7.00365086024,0.962428120778,-8.00317195886
14.5769600989,1.89350193735,-7.12333072961,3.9750605744,-0.834678343501
16.0901054835,1.51880689492,-6.80480743444,4.82917971032,4.27038758084
17.6245280662,1.1123244894,-6.08581027159,2.04237276222,3.98927261681
19.1743321037,0.687902716558,-5.02450249865,-4.01930071417,-0.224452976916
20.7334278322,0.259830038769,-3.69356898348,-11.2107715768,-4.08545869191
22.295588725,-0.157670504602,-2.17488923208,-16.5116120464,-3.48771473921
23.8545009481,-0.550953997403,-0.55511436906,-17.3086693232,1.95234186034
25.4038108676,-0.907447851324,1.07791006828,-12.4912918275,7.28424989439
26.937175387,-1.21610366811,2.63812497544,-2.95338998108,5.97118053409
28.4483192175,-1.46778531585,4.04397589107,8.64721720839,-2.65718406531
29.9311048411,-1.65557299554,5.22119943466,18.7668406475,-10.5925485508
31.3796194178,-1.77496863593,6.10586767546,24.1694539826,-8.63881981586
32.7882765751,-1.82399907847,6.64763293535,23.0068935674,2.61931810302
34.1519237288,-1.80322542112,6.8128790369,15.4175002459,11.8887816016
35.4659445529,-1.71567133151,6.58739454121,3.48069921332,9.24398678447
36.7263483689,-1.56668302615,5.97820425228,-9.41625201755,-2.40358456972
37.9298388758,-1.36373392539,5.01425558816,-19.5933234843,-10.5700696639
39.0738582664,-1.11618341164,3.74579106511,-24.1717154008,-7.44552839031
40.1566074475,-0.834994109149,2.24239014138,-21.9261501742,2.01224781577
41.1770437136,-0.532411389523,0.58974933829,-13.6526689965,7.08864179572
42.134855873,-0.221610443592,-1.11468231294,-1.93915221781,3.88417321951
43.0304197635,0.0836861780345,-2.76700442066,9.62758571232,-1.64348423149
43.8647438184,0.369623353612,-4.26278289638,17.6100992593,-2.46518456608
44.6394156973,0.622662448097,-5.5032524098,19.8382398375,0.775110501384
45.3565578902,0.830060145333,-6.40152573274,16.0721373575,1.76925672332
46.0187968666,0.980365444933,-6.88856710445,7.9583647133,-2.07474430985
46.6292457653,1.06391509116,-6.91869501729,-1.67766482253,-5.57018892008
47.191499552,1.07330412612,-6.47430298282,-9.87680371606,-2.51588524884
47.7096435531,1.00380906886,-5.56936380166,-14.4894136137,5.40090222981
48.1882750014,0.853739994903,-4.25123195455,-14.6955465024,9.31506337734
48.6325327566,0.624694758421,-2.6003002914,-11.0155341556,3.47454685597
49.0481278911,0.321689426601,-0.727148060646,-4.91976271151,-7.0531355742
49.4413701755,-0.0468534177155,1.23307762402,1.76060810913,-11.0824993672
49.8191848144,-0.469270919137,3.12906743156,7.39309068818,-3.83154744557
50.1891094588,-0.930989790106,4.80421279577,10.8964842333,7.19767826007
50.559264606,-1.41501690272,6.10930688504,11.8519149744,10.4333706683
50.9383010168,-1.90256820443,6.91624719605,10.4507736888,3.19947485595
51.3353383941,-2.37379529085,7.13167790709,7.35665519891,-5.92360581335
51.7599117306,-2.80856216046,6.70921943122,3.48589635736,-7.70337292767
52.2219326968,-3.18723236178,5.65864677863,-0.308995331003,-2.34987795784
52.7316637722,-3.49143723492,4.05034202167,-3.56178692499,2.84701354212
53.2996993642,-3.70480115639,2.01369482804,-6.31746538764,3.61910599972
53.936948675,-3.8136013528,-0.27120278526,-8.91186413969,2.49805988831
54.6546150905,-3.80734242355,-2.58837296626,-11.4883549314,2.46413310248
55.4641679275,-3.67922757574,-4.70616547911,-13.5554127105,1.4179122916
56.3773112749,-3.42650298463,-6.40083375689,-13.911549815,-3.55809256455
57.405964824,-3.05064615604,-7.48076529798,-11.0938806057,-8.94147943522
58.5622718088,-2.55737578235,-7.80847012915,-4.23913079792,-7.05046894621
59.858640688,-1.95647775737,-7.31771366779,6.03244256821,3.40621338108
61.3078180396,-1.26146022051,-6.02376598287,17.2486497355,13.1470094053
62.9229847854,-0.489063762853,-4.0254870738,25.6324155767,11.8110402342
64.7178627952,0.341336145975,-1.49883336381,27.5174973998,-0.0469009193538
66.7068165315,1.20839198151,1.31776376126,21.0718351664,-11.4017060387
68.9049370066,2.08947223445,4.14492917965,7.49309376343,-12.7684054421
71.3280959951,2.96133777801,6.68886996752,-9.02909951888,-5.157752179
73.9929631488,3.80077872825,8.67048297895,-22.7371571029,3.4638434125
76.9169913133,4.58520220238,9.85440217915,-28.5669220998,7.73633292916
80.1183817616,5.29317262319,10.0752211336,-24.2774606961,8.11651060406
83.6160387321,5.90490704855,9.25812925761,-11.5149974915,6.13917625336
87.4295205393,6.40272756995,7.43149697821,4.70140472216,1.17576276852
91.5789896767,6.77146848668,4.72952210095,17.9180215304,-6.27112818439
96.0851529469,6.99882455336,1.3838570356,22.8204306363,-11.2979519559
100.969178832,7.0756236341,-2.29570796,17.3960393609,-8.35685434854
106.252590787,6.99602068904,-5.94999476083,3.83181878986,1.64903212282
111.957144255,6.75762110534,-9.20583291698,-12.2460281532,10.3347575303
118.104692652,6.36153964801,-11.7144754956,-23.9827758035,9.60278891298
124.717041249,5.81239491432,-13.1890028904,-26.1297056823,0.423750821483
131.815784961,5.1182363505,-13.4366606477,-17.3104516078,-7.42651653715
139.422132549,4.29040780636,-12.3824011811,-0.669232440598,-5.54856985431
147.556729097,3.34336123825,-10.0806543825,17.4476285996,3.41573733329
156.239489532,2.29443406975,-6.71361131527,30.1736370983,7.92680451917
165.489449494,1.16359519433,-2.57588700376,32.9149782056,0.685934320555
175.324634967,-0.0268424780621,1.95298699253,25.0241879192,-11.3767033564
185.761952612,-1.25254595425,6.44543952183,9.74323338061,-13.1779912197
196.817101734,-2.48752735602,10.4682544789,-7.38571488851,0.962640831301
208.504504405,-3.70455933263,13.6259817644,-20.8260437847,18.2322286109
220.837248056,-4.87565020117,15.6007573029,-27.0454464578,19.5491984882
233.827034247,-5.97258571702,16.1843556268,-25.4424712749,1.14343021359
247.484130188,-6.96753691572,15.2992179242,-17.9895643994,-19.5354161288
261.817319454,-7.83372834663,13.0064051381,-7.97252639069,-21.9102387628
276.833829746,-8.54617396981,9.49962545432,1.42484529739,-4.53281593532
292.539193806,-9.08250204341,5.08579337548,8.05412239742,14.2247512851
308.937020342,-9.42385814207,0.154368654643,11.1494443239,17.6199386345
326.028726969,-9.55578834196,-4.86026632891,11.3794857461,7.69633081597
343.813347689,-9.46894113415,-9.51817198564,10.6469812104,-2.50202023216
362.287495018,-9.15947149126,-13.4107687125,11.1910671882,-8.38107178462
381.445458487,-8.62915161097,-16.1932387827,13.8456148336,-14.8928304788
401.2793568,-7.88527721176,-17.6117230587,16.4826017802,-18.0746371406
421.77928093,-6.94044720965,-17.5244905876,14.3723077481,-1.68898978617
442.933425368,-5.81223513883,-15.9154907411,3.16020005008,34.0893717404
464.72822995,-4.52274484622,-12.8985738519,-17.0981398414,51.7743470833
487.148529783,-3.09806926649,-8.71144753171,-39.8527475271,11.2730302484
510.177681797,-1.56770056171,-3.69941843183,-54.0472720857,-66.6683128811
533.797642243,0.0360693334817,1.71040268006,-49.6058458577,-97.5890567075
557.9889996,1.6787551434,7.04329295293,-23.3958087789,-23.269441613
582.730982708,3.32430929664,11.817551022,17.8167390562,100.789551978
608.001448841,4.93578180832,15.5884053587,59.2429095751,142.56557098
633.77683624,6.47599298694,17.9910098942,84.0589437798,38.4168678274
660.032068308,7.90820644821,18.7780577826,80.7818140275,-118.328696544
686.740416579,9.19681084487,17.847960389,48.6481660356,-165.215128947
713.873338311,10.3080264694,15.2602593472,-1.55348447121,-49.2769049119
741.400294335,11.2106388141,11.2358552503,-51.7306753387,109.486886955
769.288539653,11.8767429446,6.14093109661,-83.9702412984,149.536993085
797.502876861,12.2824756673,0.455179948987,-87.8395314136,44.0736782841
826.0053727,12.4087194565,-5.27309316088,-64.1886377352,-80.7032770527
854.755048811,12.2417699495,-10.4806727313,-23.9089267207,-98.0679937867
883.707556211,11.7739536721,-14.6464652061,17.411071914,-17.5024897072
912.814834461,11.004170434,-17.3459049353,46.1644072193,48.8552472064
942.024754356,9.93833035213,-18.2968522691,55.6867134443,31.7496257897
971.280747761,8.58965963535,-17.3917621017,47.6166795181,-22.1606930529
1000.5214285,6.97885041234,-14.7122412972,29.604930032,-27.8636185036
1029.68020356,5.13402746493,-10.5239939221,10.9196694481,22.8874888827
1058.68487377,3.09050894749,-5.2522437418,-1.78172562192,56.6688632198
1087.45722784,0.890348973593,0.560196877622,-6.65001047497,20.1266887042
1115.91263657,-1.41833983782,6.30811806386,-6.17721333822,-48.9698917257
1143.95965091,-3.78228126028,11.3866761148,-4.79520050913,-69.7392853287
1171.49959933,-6.14414509526,15.2550103967,-6.06305935256,-18.3052404732
1198.42617407,-8.44386547224,17.4937598503,-10.8731698723,46.5447677315
1224.62499486,-10.6201517997,17.8501598182,-17.3375866521,57.2716315869
1249.97314421,-12.6121598231,16.2658173312,-22.0863829436,13.6543398796
1274.33867764,-14.3612697344,12.8842510127,-22.1034639936,-28.1363633832
1297.58011959,-15.8129022917,8.03750653713,-16.1728219467,-28.2645759963
1319.54595457,-16.9183003778,2.2132994533,-5.39619190098,-3.20547452417
1340.07411129,-17.636213224,-3.99400301134,7.2480424296,8.00668324207
1358.99143093,-17.9344283701,-9.94365309172,18.0071384476,-2.78830845133
1376.11312092,-17.7910885049,-15.0138270467,23.7168256601,-9.22754097725
1391.24220763,-17.1957238608,-18.6650993116,22.9636896488,6.21814271669
1404.1689946,-16.1499465278,-20.4955490791,16.5667284819,24.7910071602
1414.67052012,-14.6677784175,-20.2820293076,7.13416190633,16.9787723721
1422.51000752,-12.7755976815,-18.0035514014,-2.0768079578,-14.5217951538
1427.43630811,-10.5116948544,-13.8444682345,-8.42601655555,-33.6838209653
1429.18333354,-7.92544717692,-8.17721551118,-10.7415638594,-15.8214297296
1427.46946679,-5.0761402837,-1.52648794055,-9.48218069091,19.550868784
1421.99694506,-2.031474112,5.48151640291,-6.22813735577,31.4276854277
1412.45121967,1.13421172659,12.1798411903,-2.78136838131,7.42086730109
1398.50030356,4.34195339436,17.9256260199,-0.336962487169,-22.2607018765
1379.79411058,7.51036411208,22.1626777878,0.851167178354,-23.2893894537
1355.96378437,10.5579512276,24.4754951951,1.20171686312,2.0292834234
1326.62101192,13.40547164,24.6293342057,1.21417898528,21.4808822211
1291.35731691,15.978245225,22.5923436929,1.00465701648,14.2588163125
1249.74332802,18.2083473671,18.5376701582,0.282096699207,-6.77919653196
1201.3280203,20.0366081962,12.8255269731,-1.25194997715,-15.8122640417
1145.6379277,21.4143530241,5.96726523801,-3.40667774225,-6.37284611404
1082.17632033,22.3048224513,-1.42477296382,-5.32004402376,5.42457135209
1010.42233605,22.6842184003,-8.69647889542,-5.78281058635,5.5745543567
929.830063562,22.5423432036,-15.2142011755,-3.88579284763,-0.757815561891
839.827581648,21.8828217186,-20.4236170578,0.401421332619,-0.540212312486
739.815954323,20.7229052455,-23.8994781504,6.02447047521,6.34722461552
629.16817147,19.0928602953,-25.3816600009,11.1120844154,6.96141955095
507.228023931,17.0349586063,-24.7944503538,13.6449233633,-4.44456136088
373.30890432,14.6021012318,-22.2477307457,12.2878302168,-15.3471635069
226.69252514,11.8561228013,-18.0205322424,7.03418483808,-10.24373649
66.6275493024,8.8658369121,-12.5291336744,-0.643541851164,7.63378029781
-107.671864884,5.7048994682,-6.28326619889,-8.24661948703,18.2137870235
-297.027597125,2.44957714023,0.16496321698,-13.1678420428,8.97102622796
-502.29916824,-0.823489208273,6.27419765198,-13.7277612923,-9.3391458468
-724.385406168,-4.03944144122,11.5636547507,-9.90035363689,-15.7214569315
-964.226172313,-7.12720784494,15.6547229558,-3.39100412419,-4.10549375794
-1222.80415011,-10.0212941254,18.300358612,3.02043293403,10.5319949329
-1501.14670062,-12.6633165187,19.3997186077,6.64090003924,11.2960806182
-1800.32778794,-15.0032418181,18.9971893361,6.0574380133,-0.959753278635
-2121.46997082,-17.0003056051,17.2667818269,1.83157461782,-10.6934242606
-2465.74645414,-18.6235901327,14.4844440274,-3.67485955131,-7.43686772145
-2834.38319777,-19.8522614316,10.9919733147,-7.35404830345,2.97318066969
-3228.66108856,-20.6754860211,7.15685694081,-6.8568535263,7.87940208722
-3649.9181843,-21.0920621169,3.33257731163,-1.81828634833,3.81574949768
-4099.55203755,-21.1098075646,-0.176318704467,5.85295572226,-1.39829326656
-4579.02210395,-20.7447488265,-3.14077132637,12.8208910516,-1.10121440833
-5089.85223369,-20.0201527456,-5.42282612605,15.9093725603,1.32368294059
-5633.63323925,-18.9654385214,-6.97911424355,13.6299136533,-1.19267195096
-6212.0255277,-17.6150032199,-7.85248169625,6.87040388029,-7.57286769005
-6826.76178566,-16.0069938557,-8.15353664202,-1.60223191739,-8.45220787823
-7479.64971087,-14.1820647313,-8.03517319161,-8.55738503744,1.21996599622
-8172.57479065,-12.1821638458,-7.66397306261,-11.8771191848,13.5399841957
-8907.50313052,-10.0493921111,-7.19262576804,-11.4506288525,15.2143994799
-9686.484335,-7.82497286179,-6.73712852434,-8.92801882516,2.82008480163
-10511.6544377,-5.54835789484,-6.3616268773,-6.51909043752,-12.6827266363
-11385.2388757,-3.25648758852,-6.07256699757,-5.57289672045,-17.482064211
-12309.5555104,-0.983221154979,-5.82255818631,-5.79648927119,-8.73519591111
-13287.0177004,1.24104799543,-5.52306085524,-5.56141210755,4.57420568254
-14320.1374347,3.38958635892,-5.06378372439,-3.05984320603,12.4657049666
-15411.5285258,5.43933336028,-4.33570557471,2.42397165971,12.3308284952
-16563.90986,7.37075320195,-3.25417142364,9.86706874794,6.86110520213
-17780.108706,9.16754955447,-1.77860968863,16.8168584186,-1.61246704626
-19063.0640858,10.816268076,0.0740061792952,20.4603866303,-10.9885439214
-20415.8302137,12.3058141687,2.22392102041,18.9046531802,-15.8236111463
-21841.5800074,13.626918705,4.53245772616,12.068964718,-9.75575283809
-23343.6086725,14.7715885714,6.81464681324,1.80163843521,5.78416174402
-24925.3373556,15.7325827145,8.85916230817,-8.80405346438,18.5849784041
-26590.316857,16.5029592064,10.4531758363,-16.5716171659,16.142028146
-28342.2313851,17.0757381921,11.4090643724,-19.3930956263,-0.358965285905
-30184.9023404,17.443715166,11.5895276343,-16.9393589474,-15.6770565473
-32122.2921179,17.5994421942,10.9276988096,-10.6927513787,-15.8530424066
-34158.5079252,17.535379658,9.43937005803,-3.302970391,-2.34272634169
-36297.805605,17.2442129219,7.22547736721,2.50319081034,10.6788937439
-38544.5934488,16.7193237202,4.46429884207,5.03840696426,11.7086421663
